time [s],Force [kN],Transducer [mm]
40.069336,-1.5071332,-0.0040799378999999995
40.269531,-2.4252403,-0.0095486641
40.469727,-3.0571966,-0.01424402
40.669922,-3.2694321,-0.015254318999999999
40.870117,-4.6542902,-0.022757053
41.070313,-5.6885071,-0.028610228999999997
41.270508,-6.2518249,-0.032150745
41.470703,-6.971886200000001,-0.036308169
41.670898,-7.933737799999999,-0.040671228999999996
41.871094,-8.8895454,-0.045050680999999995
42.071289,-9.7198858,-0.048935413
42.271484,-10.387528999999999,-0.051563977999999996
42.47168,-11.274984,-0.055652857
42.671875,-12.138092,-0.058372319000000006
42.87207,-12.907580000000001,-0.061380863
43.072266,-13.676810999999999,-0.064304471
43.272461,-14.465907000000001,-0.06750375
43.472656,-15.20241,-0.069826841
43.672852,-16.030442999999998,-0.072476268
43.873047,-16.732719,-0.074984133
44.073242,-17.592926000000002,-0.077491999
44.273438,-18.418926000000003,-0.08044242900000001
44.473633,-19.069351,-0.082576275
44.673828,-19.775049,-0.084397197
44.874023,-20.770798000000003,-0.08786469699999999
45.074219,-21.508343,-0.089551508
45.274414,-22.161576999999998,-0.09176433099999999
45.474609,-22.883959,-0.094509125
45.674805,-23.664257,-0.09640604300000001
45.875,-24.656399,-0.099642575
46.075195,-25.302001999999998,-0.10115504
46.275391,-25.940989000000002,-0.10301024
46.475586,-26.851753000000002,-0.10549575
46.675781,-27.630875,-0.10756552
46.875977,-28.503436999999998,-0.10925829
47.076172,-29.223429,-0.11244267
47.276367,-30.025469,-0.11424422
47.476563,-30.784019,-0.11660755
47.676758,-31.463207,-0.118047
47.876953,-32.234818,-0.12053549
48.077148,-33.106606,-0.12286901
48.277344,-33.873917,-0.12436658
48.477539,-34.621513,-0.12674183
48.677734,-35.379463,-0.12910068
48.87793,-36.271865999999996,-0.13135076
49.078125,-36.914116,-0.13309121
49.27832,-37.772304999999996,-0.13470799
49.478516,-38.578765999999995,-0.13700873
49.678711,-39.325573,-0.13930351
49.878906,-40.186690999999996,-0.14108866
50.079102,-40.783253,-0.14183223
50.279297,-41.628414,-0.14428496
50.479492,-42.395317,-0.14621466
50.679688,-43.208015,-0.14794618
50.879883,-43.953228,-0.15057325
51.080078,-44.87912,-0.15188009
51.280273,-45.533592,-0.15419573
51.480469,-46.214741,-0.15610307
51.680664,-47.12635,-0.15795231
51.880859,-47.993072999999995,-0.15992373
52.081055,-48.864189,-0.16210973
52.28125,-49.259506,-0.1631543
52.481444999999994,-50.158359999999995,-0.16536564
52.681641000000006,-51.030224,-0.16788989
52.881836,-51.756264,-0.1690194
53.08203100000001,-52.652374,-0.17133504
53.282227,-53.371738,-0.17311573
53.482422,-54.217247,-0.1746729
53.68261700000001,-54.986088,-0.17641783
53.882813,-55.75018299999999,-0.17833859
54.08300799999999,-56.388256000000005,-0.1799807
54.283203,-57.160233,-0.18192083
54.483398,-57.975818999999994,-0.18421561
54.68359399999999,-58.768715,-0.18486529999999998
54.883789,-59.610161,-0.18634647
55.083983999999994,-60.422259999999994,-0.18949956
55.284180000000006,-61.335838,-0.19069463
55.484375,-62.003311,-0.19249171
55.684569999999994,-62.615162,-0.19444376
55.884766000000006,-63.407990000000005,-0.19547641
56.084961,-64.195488,-0.19814968
56.28515600000001,-64.926361,-0.19956529
56.485352,-65.884598,-0.20140707
56.685547,-66.642227,-0.20307451
56.88574200000001,-67.38290400000001,-0.20450056
57.085938,-68.184593,-0.20581782
57.28613299999999,-69.045479,-0.20860732
57.486328,-69.731659,-0.20946562
57.686523,-70.518776,-0.21093637
57.88671899999999,-71.287338,-0.21290630000000002
58.086914,-72.082535,-0.21529794
58.287108999999994,-72.819138,-0.21654665
58.487305000000006,-73.671898,-0.21906048
58.6875,-74.453201,-0.21985918
58.887694999999994,-75.24041700000001,-0.22133440000000001
59.087891000000006,-76.12429,-0.22397488
59.288086,-76.619118,-0.22450536
59.48828100000001,-77.423233,-0.22622049
59.688477,-78.300529,-0.22879541
59.888672,-79.022697,-0.22930801
60.08886700000001,-79.81678000000001,-0.23112744
60.289063,-80.643715,-0.23283511
60.48925799999999,-81.27082800000001,-0.23510456
60.689453,-82.27583299999999,-0.23659468
60.889648,-83.113976,-0.23847669
61.08984399999999,-83.946732,-0.24038553
61.290039,-84.58918,-0.24151355
61.490233999999994,-85.336174,-0.24254322
61.690430000000006,-86.099739,-0.24461746
61.890625,-86.83854699999999,-0.24574548
62.090819999999994,-87.543449,-0.24741143
62.291016000000006,-88.556671,-0.24951249
62.491211,-89.188225,-0.25089829999999996
62.69140600000001,-90.020607,-0.25276839999999995
62.891602,-90.73009499999999,-0.25400221
63.091797,-91.58375500000001,-0.25601834
63.29199200000001,-92.43695100000001,-0.25764555
63.492188,-93.098145,-0.25884509
63.69238299999999,-93.939697,-0.26050955
63.892578,-94.661919,-0.26231557
64.092773,-95.420906,-0.26379228
64.292969,-96.303848,-0.26512444
64.49316400000001,-96.842102,-0.26656836
64.693359,-97.82016800000001,-0.26898086
64.893555,-98.600166,-0.2702564
65.09375,-99.473579,-0.27164519
65.293945,-100.1085,-0.27296543
65.494141,-101.10569,-0.27566999
65.69433599999999,-101.78447,-0.27562976
65.894531,-102.51793,-0.27757734
66.094727,-103.47419000000001,-0.27909577
66.294922,-104.11493,-0.28095543
66.49511700000001,-104.85379,-0.28151423
66.695313,-105.59385,-0.2833873
66.89550799999999,-106.45407,-0.28549433
67.095703,-107.16637,-0.28698444
67.295898,-108.11578999999999,-0.28890967
67.496094,-108.7985,-0.28965324
67.69628900000001,-109.62411999999999,-0.29117614
67.896484,-110.4498,-0.29331595
68.09668,-111.20518,-0.29437095
68.296875,-111.89464,-0.29521286
68.49707,-112.52869,-0.29701293
68.697266,-113.50267,-0.29889643
68.89746099999999,-114.3092,-0.30064434
69.097656,-115.20721,-0.30183941
69.297852,-115.89176,-0.30293614
69.498047,-116.41727,-0.30471683
69.69824200000001,-117.29807,-0.30616075
69.898438,-118.16382,-0.30749440000000006
70.09863299999999,-118.96983,-0.30885786
70.298828,-119.51068000000001,-0.3103599
70.499023,-120.52837,-0.31178594
70.699219,-121.36641999999999,-0.31355619
70.89941400000001,-122.02058999999998,-0.31482129999999997
71.099609,-122.94422,-0.31611025
71.299805,-123.68491000000002,-0.31738579
71.5,-124.27538,-0.31946599
71.700195,-125.0434,-0.32002926
71.900391,-125.86156000000001,-0.32163411
72.10058599999999,-126.6245,-0.32320023
72.300781,-127.59577,-0.32511801
72.500977,-128.17517,-0.32625645
72.701172,-129.00108,-0.32780021
72.90136700000001,-129.892,-0.32904148
73.101563,-130.75569,-0.33062994
73.30175799999999,-131.53888999999998,-0.33173263
73.501953,-132.28596000000002,-0.33347309
73.702148,-132.76523999999998,-0.33480823
73.902344,-133.74518,-0.33668578
74.10253900000001,-134.65036,-0.33740103
74.302734,-135.23572,-0.33854097
74.50293,-136.04463,-0.34036487
74.703125,-136.90288,-0.34180135
74.90332,-137.78001,-0.34329742
75.103516,-138.55534,-0.34446716
75.30371099999999,-139.19879,-0.34616888
75.503906,-140.06611999999998,-0.34734458
75.704102,-140.71175,-0.3485173
75.904297,-141.58286,-0.34994334
76.10449200000001,-142.37257,-0.35131425
76.304688,-143.13978999999998,-0.35189986
76.50488299999999,-143.98568999999998,-0.35427511
76.705078,-144.924,-0.35568923
76.905273,-145.51256,-0.35740882
77.105469,-146.33995,-0.35836399
77.30566400000001,-147.06006000000002,-0.36015064
77.505859,-147.86423,-0.36073029
77.706055,-148.68448,-0.361754
77.90625,-149.37364,-0.36398023
78.106445,-150.22865,-0.36520064
78.306641,-150.9409,-0.36613643
78.50683599999999,-151.68053,-0.36763102
78.707031,-152.46837,-0.36901087
78.907227,-153.2659,-0.37055463
79.107422,-154.07898,-0.37188530000000003
79.30761700000001,-154.79942,-0.37329495
79.507813,-155.69124,-0.37475973
79.70800799999999,-156.32907,-0.37560165
79.908203,-157.08667,-0.37790537
80.108398,-158.19476,-0.37884414
80.308594,-158.79311,-0.38048774
80.50878900000001,-159.39534,-0.38080812
80.708984,-160.30624,-0.38214326
80.90918,-161.21347,-0.38415641
81.109375,-161.8844,-0.38557351
81.30957,-162.6293,-0.38661361
81.509766,-163.32719,-0.38750321
81.70996099999999,-164.32494,-0.38932562
81.910156,-164.85831000000002,-0.39045959999999996
82.110352,-165.79277,-0.39205998
82.310547,-166.66378999999998,-0.39344579
82.51074200000001,-167.38916,-0.39459765
82.710938,-168.09771999999998,-0.39587021
82.91113299999999,-168.87726,-0.39671212
83.111328,-169.77264,-0.39812475
83.311523,-170.39444,-0.40001869
83.511719,-171.24632,-0.40129721
83.71191400000001,-172.15413,-0.40335655
83.912109,-172.785,-0.40380657
84.112305,-173.70445,-0.40558577
84.3125,-174.49451000000002,-0.40585697
84.512695,-174.9516,-0.40701479
84.712891,-175.96704,-0.40893108
84.91308599999999,-176.81589,-0.41028261
85.113281,-177.54918,-0.41200966
85.313477,-178.37421,-0.41352510000000003
85.513672,-179.0704,-0.41413903
85.71386700000001,-179.82198,-0.41538924
85.914063,-180.48718,-0.41626543
86.11425799999999,-181.65171999999998,-0.41876286
86.314453,-182.15164,-0.41973591
86.514648,-182.85891999999998,-0.42063892
86.714844,-183.86324,-0.42195469
86.91503900000001,-184.4968,-0.42309016
87.115234,-185.33723,-0.42487532
87.31543,-186.05579,-0.42615682
87.515625,-186.80504,-0.42672455
87.71582,-187.57375,-0.42812228
87.916016,-188.35283,-0.42984933
88.11621099999999,-189.1329,-0.43075085
88.316406,-189.87231,-0.43243021
88.516602,-190.71277,-0.43417364
88.716797,-191.6277,-0.43500811
88.91699200000001,-192.40988000000002,-0.43648779
89.117188,-193.05705,-0.43808222
89.31738299999999,-193.92592,-0.43922365
89.517578,-194.60273999999998,-0.44035912
89.717773,-195.45313000000002,-0.44082105
89.917969,-196.17177,-0.44248402
90.11816400000001,-197.15278999999998,-0.44426918
90.318359,-197.82217,-0.44519454
90.518555,-198.45973,-0.44662952
90.71875,-199.45467,-0.4480510999999999
90.918945,-200.15677,-0.44991076
91.119141,-200.95192,-0.45066923
91.31933599999999,-201.77283,-0.45195669
91.519531,-202.56265,-0.45315325
91.719727,-203.19037,-0.45422763
91.919922,-203.97612,-0.45517683
92.12011700000001,-204.78099,-0.45660138
92.320313,-205.57678,-0.45818239
92.52050799999999,-206.42006,-0.45922995
92.720703,-207.04256,-0.46024024
92.920898,-207.95763,-0.46157390000000004
93.121094,-208.84299,-0.46311468
93.32128900000001,-209.5632,-0.46409965
93.521484,-210.33178999999998,-0.46580434
93.72168,-211.23007,-0.46665967
93.921875,-211.8317,-0.46806931
94.12207,-212.58263,-0.46958923
94.322266,-213.36728,-0.47059208
94.52246099999999,-214.1694,-0.47183633
94.722656,-214.94582000000003,-0.47330856
94.922852,-215.71573999999998,-0.47428757
95.123047,-216.3721,-0.47590584
95.32324200000001,-217.3007,-0.47772527
95.523438,-218.02646000000001,-0.47827065
95.72363299999999,-218.73397999999997,-0.47923028
95.923828,-219.69402000000002,-0.48023760000000004
96.124023,-220.5002,-0.48139989
96.324219,-221.15037999999998,-0.48277378
96.52441400000001,-222.00101,-0.48417896
96.724609,-222.77559,-0.48554838
96.924805,-223.50371,-0.48747957
97.125,-224.4249,-0.48840642
97.325195,-225.05177,-0.48892945
97.525391,-225.86333,-0.49035251
97.72558599999999,-226.7438,-0.49148053
97.925781,-227.42445,-0.49242526
98.125977,-228.22773999999998,-0.49379170000000006
98.326172,-228.89473999999998,-0.49512982
98.52636700000001,-229.78705,-0.49694479
98.726563,-230.60303,-0.49753934
98.92675799999999,-231.31897,-0.49895197
99.126953,-232.16879,-0.50026923
99.327148,-232.93309,-0.50214976
99.527344,-233.73854,-0.50318837
99.72753900000001,-234.49239,-0.50443858
99.927734,-235.28271,-0.5060792000000001
100.12793,-236.05807000000001,-0.50684065
100.32813,-236.85617000000002,-0.507617
100.52832,-237.48009,-0.50860941
100.72851999999999,-238.26231,-0.51004142
100.92871,-239.18287999999998,-0.51110983
101.12891,-239.91022,-0.51258206
101.3291,-240.57047999999998,-0.5136624
101.5293,-241.5314,-0.5150646
101.72949,-242.3344,-0.51639974
101.92969000000001,-243.1376,-0.51758736
102.12988,-243.96896,-0.51845163
102.33008000000001,-244.66499,-0.51954836
102.53027,-245.3362,-0.52072853
102.73047,-246.12245,-0.52190423
102.93066,-246.95493,-0.52371621
103.13086,-247.77957,-0.5247429
103.33105,-248.51713999999998,-0.52627176
103.53125,-249.49866,-0.52758455
103.73145,-250.17581,-0.52912533
103.93164,-250.77956,-0.52984208
104.13184,-251.62645,-0.53067356
104.33203,-252.34705,-0.53156912
104.53223,-253.22044,-0.53254366
104.73241999999999,-254.11948999999998,-0.53448081
104.93262,-254.64291,-0.5358085
105.13281,-255.58344,-0.53719431
105.33301000000002,-256.31424,-0.53881705
105.5332,-257.10602,-0.53963512
105.7334,-257.74515,-0.54048896
105.93359,-258.63898,-0.54172426
106.13378999999999,-259.41132000000005,-0.54282695
106.33398000000001,-260.44827000000004,-0.54423809
106.53418,-261.01886,-0.54553151
106.73438,-261.88861,-0.54684132
106.93457,-262.64511,-0.54807961
107.13476999999999,-263.44867,-0.54938793
107.33496000000001,-264.22382000000005,-0.5507648
107.53516,-264.79913,-0.55180043
107.73535,-265.65915,-0.55314004
107.93555,-266.53198,-0.55424869
108.13573999999998,-267.11462,-0.55551678
108.33594,-268.19217000000003,-0.55651814
108.53613,-268.74399,-0.55776834
108.73633000000001,-269.64511,-0.55900514
108.93652,-270.4278,-0.56016147
109.13672,-271.20477,-0.56133419
109.33691,-271.93335,-0.56229681
109.53711000000001,-272.73996,-0.56494474
109.7373,-273.44757000000004,-0.56506991
109.9375,-274.20403999999996,-0.565584
110.1377,-275.23117,-0.56803823
110.33788999999999,-275.79642,-0.56898743
110.53809,-276.61328,-0.57002604
110.73828,-277.3714,-0.57106465
110.93848,-278.26129,-0.5727306
111.13866999999999,-279.02319,-0.57398379
111.33887,-279.72876,-0.57440102
111.53906,-280.54547,-0.57621747
111.73926000000002,-281.31656,-0.57721883
111.93945,-282.1832,-0.57817847
112.13965,-282.84682999999995,-0.58021694
112.33984,-283.69534,-0.58045834
112.54003999999999,-284.40767999999997,-0.58162063
112.74023000000001,-285.07626,-0.58316588
112.94043,-286.11212,-0.58410168
113.14063,-286.70026,-0.58614314
113.34082,-287.50986,-0.5866304
113.54101999999999,-288.47314,-0.58745146
113.74121000000001,-289.1926,-0.58869421
113.94141,-289.85181,-0.59023201
114.1416,-290.66,-0.59136897
114.3418,-291.50403,-0.59311837
114.54198999999998,-292.29474,-0.59439987
114.74219,-292.95776,-0.59538633
114.94238,-293.87674,-0.59659928
115.14258000000001,-294.66718,-0.59805512
115.34277,-295.46304,-0.59935749
115.54297,-296.15762,-0.60018152
115.74316,-297.05695,-0.60138106
115.94336000000001,-297.66211,-0.60212016
116.14355,-298.61005,-0.60337037
116.34375,-299.33212000000003,-0.60492009
116.54395,-300.04807,-0.60643107
116.74413999999999,-300.74365,-0.60736537
116.94434,-301.59521,-0.60843676
117.14453,-302.53336,-0.60988516
117.34473,-303.10849,-0.61159432
117.54491999999999,-303.87737999999996,-0.61254054
117.74512,-304.7738,-0.6140098
117.94531,-305.73715,-0.61534494
118.14551000000002,-306.43399,-0.61656535
118.3457,-307.08112,-0.61759651
118.5459,-307.83212000000003,-0.61870664
118.74609,-308.63205,-0.61959177
118.94628999999999,-309.50613,-0.62150508
119.14648000000001,-310.29501,-0.62271208
119.34668,-311.02263999999997,-0.62393993
119.54688,-311.74295,-0.62526911
119.74707,-312.52756,-0.62597245
119.94726999999999,-313.32574,-0.62704384
120.14746000000001,-314.18536,-0.62857419
120.34766,-314.90341,-0.62999576
120.54785,-315.6568,-0.63182116
120.74805,-316.36107999999996,-0.63250363
120.94823999999998,-317.26675,-0.63419342
121.14844,-318.15582,-0.63531101
121.34863,-318.74136,-0.63620508
121.54883000000001,-319.43807999999996,-0.63709915
121.74902,-320.31302,-0.63863099
121.94922,-321.22421,-0.63975006
122.14941,-322.02927,-0.6404981
122.34961000000001,-322.73755,-0.64259022
122.5498,-323.55312999999995,-0.64403117
122.75,-324.12518,-0.64465702
122.9502,-325.09235,-0.64666122
123.15038999999999,-325.86383,-0.64787865
123.35059,-326.70929,-0.6488204000000001
123.55078,-327.42233,-0.65030605
123.75098,-328.09247,-0.65103173
123.95116999999999,-328.92871,-0.65244436
124.15137,-329.77417,-0.65321326
124.35156,-330.436,-0.65525025
124.55176000000002,-331.21005,-0.65587461
124.75195,-332.07614,-0.6578356
124.95215,-332.87881,-0.65885335
125.15234,-333.72705,-0.65975636
125.35253999999999,-334.49649,-0.66153556
125.55273000000001,-335.26141,-0.66332519
125.75293,-335.97974,-0.66393167
125.95313,-336.74962999999997,-0.66537112
126.15332,-337.60165,-0.66663176
126.35351999999999,-338.39838,-0.66761076
126.55371000000001,-339.15542999999997,-0.66904128
126.75391,-339.7963,-0.67061782
126.9541,-340.71667,-0.67203194
127.1543,-341.4115,-0.67277402
127.35448999999998,-342.27069,-0.6741792
127.55469,-343.01407,-0.67561418
127.75488,-343.6694,-0.67662597
127.95508000000001,-344.53033,-0.67774802
128.15527,-345.46091,-0.67972541
128.35547,-346.18453999999997,-0.68052411
128.55566000000002,-346.94479,-0.68153739
128.75586,-347.74203,-0.68287104
128.95605,-348.50119,-0.68449378
129.15625,-349.39191,-0.68585128
129.35645,-350.11206,-0.68709701
129.55664,-350.90207000000004,-0.68774968
129.75683999999998,-351.54462,-0.68953484
129.95703,-352.29578,-0.69047511
130.15723,-353.27505,-0.69252104
130.35742,-354.04871,-0.69288164
130.55762,-354.69638,-0.69491714
130.75781,-355.55215,-0.69558769
130.95801,-356.29065,-0.69698542
131.1582,-356.98972000000003,-0.69839805
131.3584,-357.89404,-0.70005804
131.55858999999998,-358.73337000000004,-0.70140213
131.75879,-359.37415,-0.70261061
131.95898,-360.14322000000004,-0.70328116
132.15918,-360.85745,-0.70504993
132.35938000000002,-361.69501,-0.70628673
132.55957,-362.51855,-0.70769489
132.75977,-363.22675,-0.70871115
132.95996,-364.0914,-0.71013123
133.16016000000002,-364.72567999999995,-0.71106255
133.36035,-365.62592,-0.71263015
133.56055,-366.42896,-0.71405768
133.76074,-367.01254,-0.71534067
133.96094,-368.02087,-0.71640909
134.16113,-368.83905,-0.71768016
134.36133,-369.56683,-0.71855336
134.56152,-370.32156000000003,-0.72086006
134.76172,-371.02701,-0.72215348
134.96191000000002,-371.82147000000003,-0.72284043
135.16211,-372.59698,-0.72420239
135.3623,-373.47772000000003,-0.7260411999999999
135.5625,-374.27719,-0.72709769
135.7627,-375.05905,-0.7284984
135.96289,-375.87906,-0.72951615
136.16308999999998,-376.47213999999997,-0.73018968
136.36328,-377.52542,-0.73233694
136.56348,-378.16855,-0.73389709
136.76367,-378.95435,-0.73423982
136.96387,-379.60562000000004,-0.73567629
137.16406,-380.48117,-0.73749572
137.36426,-381.26569,-0.73858351
137.56445,-382.06644,-0.74020773
137.76465,-382.67145,-0.74132085
137.96483999999998,-383.51514,-0.74252188
138.16504,-384.36267000000004,-0.74344873
138.36523,-385.16489,-0.74497908
138.56543,-385.89063,-0.74585825
138.76563000000002,-386.69268999999997,-0.74794739
138.96582,-387.44025,-0.7490918000000001
139.16602,-388.16931,-0.75018555
139.36621,-389.15072999999995,-0.75181127
139.56641000000002,-389.8855,-0.752379
139.7666,-390.58466,-0.7542029
139.9668,-391.46106000000003,-0.75512379
140.16699,-392.31479,-0.75644702
140.36719,-393.05646,-0.75862259
140.56738,-393.62241,-0.75980127
140.76758,-394.55597,-0.76149255
140.96777,-395.23708999999997,-0.76118559
141.16797,-396.13156000000004,-0.76359808
141.36816000000002,-396.92319,-0.76450557
141.56836,-397.57956,-0.76576024
141.76855,-398.39789,-0.76733083
141.96875,-399.13361000000003,-0.76860636
142.16895,-400.00864,-0.77030957
142.36914,-400.69473,-0.77090114
142.56933999999998,-401.39847000000003,-0.77188462
142.76953,-402.38184,-0.77372938
142.96973,-403.06015,-0.77498853
143.16992,-403.91266,-0.77592731
143.37012,-404.59775,-0.7776767
143.57031,-405.39954,-0.77882409
143.77051,-406.12671,-0.77951103
143.9707,-407.01526,-0.7813558
144.1709,-407.85837000000004,-0.78273267
144.37108999999998,-408.52319,-0.78384429
144.57129,-409.49216,-0.78535229
144.77148,-410.20392000000004,-0.78641474
144.97168,-410.95569,-0.78769028
145.17188000000002,-411.65323,-0.78883171
145.37207,-412.4361,-0.79007447
145.57227,-413.36287999999996,-0.79195052
145.77246,-413.94943,-0.79277307
145.97266000000002,-414.83698,-0.79432577
146.17285,-415.65497,-0.79573095
146.37305,-416.32162,-0.79647005
146.57324,-417.21536000000003,-0.79849213
146.77344,-417.95392000000004,-0.79976618
146.97363,-418.6796,-0.80110133
