time [s],Force [kN],Transducer [mm]
41.881836,-1.3174656999999999,-0.0070869923
42.082031,-2.2929162999999995,-0.019342452
42.282227,-2.8095002,-0.024362652999999998
42.482422,-3.0724182,-0.02695024
42.682617,-4.509913,-0.034682452999999995
42.882813,-5.539609,-0.04119128
43.083008,-6.2833538,-0.044564158
43.283203,-6.982900099999999,-0.048161298
43.483398,-7.9178809999999995,-0.051898509
43.683594,-8.8764381,-0.055922568
43.883789,-9.7997541,-0.05985349400000001
44.083984,-10.606614,-0.062915683
44.28418,-11.382484,-0.06629228599999999
44.484375,-12.164045,-0.068520755
44.68457,-12.90485,-0.071132183
44.884766,-13.759203,-0.073801726
45.084961,-14.474743,-0.076248497
45.285156,-15.165992000000001,-0.078789145
45.485352,-15.99792,-0.08100792799999999
45.685547,-16.747713,-0.083074719
45.885742,-17.637684,-0.085776299
46.085938,-18.298281,-0.088588893
46.286133,-19.045332000000002,-0.08991211699999999
46.486328,-19.917742,-0.09268075199999999
46.686523,-20.518606,-0.094216317
46.886719,-21.476788,-0.09626671699999999
47.086914,-22.129194000000002,-0.09787455199999999
47.287109,-22.998644,-0.10090619
47.487305,-23.674391,-0.10261387
47.6875,-24.485123,-0.10463968
47.887695,-25.403141,-0.10706186
48.087891,-26.222765000000003,-0.10885596
48.288086,-26.797728000000003,-0.11144355
48.488281,-27.562426000000002,-0.11239946
48.688477,-28.36928,-0.1147069
48.888672,-29.307236,-0.11625066
49.088867,-30.092024,-0.11857525
49.289063,-30.777485,-0.12005791
49.489258,-31.408317999999998,-0.12151301
49.689453,-32.370810999999996,-0.12356937
49.889648,-33.161999,-0.12570545
50.089844,-33.857239,-0.12718886
50.290039,-34.647255,-0.12931898
50.490234,-35.476372,-0.13110414
50.69043,-35.994896000000004,-0.13240427
50.890625,-36.861488,-0.13432950000000002
51.09082,-37.685898,-0.13613105
51.291016,-38.568264,-0.13838559
51.491211,-39.286854,-0.14005079999999998
51.691406,-40.18861,-0.14176889999999998
51.891602,-40.903698,-0.14360026
52.091797,-41.629795,-0.14460459
52.291992,-42.414207,-0.14670938
52.492188,-43.135653999999995,-0.14857426
52.69238299999999,-44.023975,-0.15031621
52.892578,-44.785892,-0.15161037
53.092773,-45.56897,-0.15378669
53.29296899999999,-46.393513,-0.15498474
53.493164,-47.117053999999996,-0.15645847
53.693358999999994,-47.952858,-0.15865415
53.893555000000006,-48.698219,-0.15974268
54.09375,-49.498965999999996,-0.16179904
54.293944999999994,-50.42667,-0.1637131
54.494141000000006,-51.190585999999996,-0.16472936
54.694336,-51.876415,-0.16648993
54.89453100000001,-52.60054399999999,-0.16836077
55.094727,-53.35826899999999,-0.16980842
55.294922,-54.195503,-0.17111674
55.49511700000001,-54.941299,-0.17243624
55.695313,-55.747890000000005,-0.17398521
55.89550799999999,-56.523254,-0.17595962
56.095703,-57.299149,-0.17800257
56.295898,-58.105518000000004,-0.17900318
56.49609399999999,-58.843678000000004,-0.18097684
56.696289,-59.484646,-0.18180385
56.896483999999994,-60.262417000000006,-0.18328652
57.096680000000006,-61.227016000000006,-0.18542111
57.296875,-61.999355,-0.18660128
57.497069999999994,-62.761051,-0.18819571
57.697266000000006,-63.493233,-0.18961951
57.897461,-64.25730899999999,-0.19050017
58.09765600000001,-65.130234,-0.19264296
58.297852,-65.93982700000001,-0.19421875
58.498047,-66.71530200000001,-0.19552335
58.69824200000001,-67.380928,-0.19691661
58.898438,-68.159447,-0.19898489
59.09863299999999,-68.94162800000001,-0.19968376
59.298828,-69.814644,-0.20158291
59.499023,-70.70871,-0.20336658
59.69921899999999,-71.242439,-0.20411313
59.899414,-72.069611,-0.20622686
60.099608999999994,-72.775375,-0.20752475
60.299805000000006,-73.674309,-0.20878464
60.5,-74.51696,-0.21013394
60.700194999999994,-75.291054,-0.21137670000000003
60.900391000000006,-75.866058,-0.21323040000000001
61.100586,-76.64948299999999,-0.21464378
61.30078100000001,-77.437294,-0.21557733
61.500977,-78.262238,-0.21748543
61.701172,-78.93940699999999,-0.21886528
61.90136700000001,-79.895309,-0.22034198
62.101563,-80.479393,-0.22179633
62.30175799999999,-81.507896,-0.22307858
62.501953,-82.17498,-0.22406578
62.702148,-83.037712,-0.22552833
62.90234399999999,-83.714088,-0.22715852
63.102539,-84.486214,-0.22877678
63.302733999999994,-85.495064,-0.23072958
63.502930000000006,-86.264664,-0.23173615
63.703125,-87.035393,-0.23331419
63.903319999999994,-87.85585,-0.2341181
64.103516,-88.289024,-0.23579970000000003
64.30371099999999,-89.192123,-0.23678020000000002
64.503906,-89.886673,-0.23826212
64.704102,-91.05070500000001,-0.24024844
64.904297,-91.547493,-0.24101734
65.10449200000001,-92.364471,-0.24254024
65.304688,-93.078209,-0.24341345
65.50488299999999,-93.886414,-0.24530739
65.705078,-94.679817,-0.24642721
65.905273,-95.44858599999999,-0.24748072
66.105469,-96.244186,-0.24887994
66.30566400000001,-96.89110600000001,-0.24994835
66.505859,-98.008736,-0.25224462
66.706055,-98.738075,-0.25311038
66.90625,-99.374397,-0.25454983
67.106445,-100.09926999999999,-0.25549679999999997
67.306641,-100.90287,-0.25727451
67.50683599999999,-101.73701,-0.25834218
67.707031,-102.55454,-0.25961623
67.907227,-103.38369,-0.26142001
68.107422,-103.96333,-0.26254579
68.30761700000001,-104.6926,-0.26343986
68.507813,-105.44333999999999,-0.26474074
68.70800799999999,-106.38023000000001,-0.26650354
68.908203,-107.27775,-0.26775971
69.108398,-107.96765,-0.26875287
69.308594,-108.69112,-0.27024001
69.50878900000001,-109.6758,-0.27161464
69.708984,-110.33679,-0.27269423
69.90918,-111.43288999999999,-0.27443469
70.109375,-111.95721999999999,-0.27492717
70.30957,-112.69301999999999,-0.27627647
70.509766,-113.33703,-0.27711764
70.70996099999999,-114.17347,-0.27873367
70.910156,-114.98201999999999,-0.28078482
71.110352,-115.84248000000001,-0.28222725
71.310547,-116.6096,-0.28304979
71.51074200000001,-117.36425,-0.28402284
71.710938,-118.10896000000001,-0.28510243
71.91113299999999,-118.9082,-0.28604269
72.111328,-119.89728999999998,-0.28832108
72.311523,-120.35139,-0.28880239
72.511719,-121.17255,-0.28999522
72.71191400000001,-122.06719,-0.29156581
72.912109,-122.91148000000001,-0.29218495
73.112305,-123.56528,-0.29390007
73.3125,-124.30066000000001,-0.29473156
73.512695,-125.06636,-0.29646605
73.712891,-125.95138999999999,-0.29756799
73.91308599999999,-126.71162,-0.29840246
74.113281,-127.60411,-0.29990897
74.313477,-128.36942,-0.30176416
74.513672,-129.08018,-0.30226707
74.71386700000001,-129.96991,-0.30403286
74.914063,-130.75175,-0.30481219
75.11425799999999,-131.56819,-0.30620024
75.314453,-132.17383999999998,-0.30704141
75.514648,-132.88707,-0.30811206
75.714844,-133.60513,-0.30987337
75.91503900000001,-134.55302,-0.31092614
76.115234,-135.48941000000002,-0.31239465
76.31543,-136.12041000000002,-0.31320527
76.515625,-136.8634,-0.31454489
76.71582,-137.57941,-0.31581223
76.916016,-138.53101999999998,-0.31682029
77.11621099999999,-139.19617,-0.31802207
77.316406,-140.00444,-0.31918362
77.516602,-140.7962,-0.32035559
77.716797,-141.46646,-0.32145381
77.91699200000001,-142.47933999999998,-0.32292381
78.117188,-143.17592,-0.32384992
78.31738299999999,-143.91571000000002,-0.32509342
78.517578,-144.6122,-0.32577217
78.717773,-145.37333999999998,-0.32751188
78.917969,-146.14626,-0.32801554
79.11816400000001,-147.0919,-0.32954291
79.318359,-147.90042,-0.33057258
79.518555,-148.4985,-0.33200532
79.71875,-149.28368999999998,-0.33352599
79.918945,-150.09441,-0.33481643
80.119141,-150.98592,-0.33535734
80.31933599999999,-151.78831,-0.33698156
80.519531,-152.59627,-0.33778027
80.719727,-153.25832,-0.33880398
80.919922,-153.86494,-0.34006759999999997
81.12011700000001,-154.69075,-0.34147203
81.320313,-155.55366999999998,-0.34261122
81.52050799999999,-156.51411000000002,-0.34312159
81.720703,-157.24542,-0.34485161
81.920898,-158.05725,-0.34615993
82.121094,-158.66214,-0.34690946
82.32128900000001,-159.63521,-0.34784675
82.521484,-160.40736,-0.34955814
82.72168,-161.10316,-0.35052523
82.921875,-161.75375,-0.35183355
83.12207,-162.79204,-0.35294965
83.322266,-163.65044,-0.35438612
83.52246099999999,-164.2625,-0.35471842
83.722656,-164.98039,-0.35599098
83.922852,-165.73039,-0.35706088
84.123047,-166.77675,-0.35898909
84.32324200000001,-167.27275,-0.35964549
84.523438,-168.18246000000002,-0.36104172
84.72363299999999,-168.8764,-0.36179945
84.923828,-169.59554,-0.36238506
85.124023,-170.28285,-0.36381036
85.324219,-171.33815,-0.36540776
85.52441400000001,-172.09891000000002,-0.36589354
85.724609,-172.79828999999998,-0.36729425
85.924805,-173.6124,-0.36923438
86.125,-174.14536999999999,-0.36936775
86.325195,-175.03069,-0.37042648
86.525391,-175.96463,-0.37146807
86.72558599999999,-176.537,-0.37256479
86.925781,-177.4567,-0.37443563
87.125977,-178.32985,-0.37538558
87.326172,-178.97647,-0.3760092
87.52636700000001,-179.90308000000002,-0.37759766
87.726563,-180.56258,-0.37846044
87.92675799999999,-181.44141000000002,-0.37985668
88.126953,-182.05063,-0.3805235
88.327148,-182.92438,-0.38147792
88.527344,-183.73273999999998,-0.38288012
88.72753900000001,-184.51334,-0.3838107
88.927734,-185.27406000000002,-0.38505867
89.12793,-186.06876,-0.38653836
89.328125,-186.83913,-0.38764849
89.52832,-187.6185,-0.38818866
89.728516,-188.54536000000002,-0.38963854
89.92871099999999,-189.23273999999998,-0.39085895
90.128906,-190.00795,-0.39148107
90.329102,-190.71515,-0.39257407
90.529297,-191.40403999999998,-0.39393455
90.72949200000001,-192.19898999999998,-0.39449781
90.929688,-193.08493,-0.39601326
91.12988299999999,-193.67799,-0.3966406
91.330078,-194.58148,-0.39799586
91.530273,-195.44965,-0.39948151
91.730469,-196.31131000000002,-0.40044114
91.93066400000001,-196.95111,-0.40126592
92.130859,-197.61873,-0.40221587
92.331055,-198.40457,-0.4031077
92.53125,-199.17664,-0.40427595
92.731445,-200.1552,-0.40531754
92.931641,-200.98078999999998,-0.40646791
93.13183599999999,-201.55303999999998,-0.40766299
93.332031,-202.33858,-0.40885806
93.532227,-203.18618999999998,-0.40957853
93.732422,-204.10815,-0.41137263
93.93261700000001,-204.94885,-0.41231439
94.132813,-205.56982,-0.41318163
94.33300799999999,-206.27986,-0.41405633
94.533203,-207.05495,-0.41519105
94.733398,-207.89911,-0.41609332
94.933594,-208.74922,-0.41777939
95.13378900000001,-209.47563,-0.41921884
95.333984,-210.33202999999997,-0.41977018
95.53418,-211.06067000000002,-0.42092353
95.734375,-211.79411000000002,-0.42173862
95.93457,-212.77773,-0.42320713
96.134766,-213.40877000000003,-0.42424574
96.33496099999999,-214.24138,-0.42533502
96.535156,-215.02422,-0.42562187
96.735352,-215.7337,-0.42720810000000004
96.935547,-216.67592000000002,-0.42833015
97.13574200000001,-217.45535,-0.42951405
97.335938,-218.19125,-0.42994246
97.53613299999999,-218.83452999999997,-0.43182671
97.736328,-219.49358999999998,-0.43236017
97.936523,-220.46169,-0.43341592
98.136719,-221.33499,-0.43492466
98.33691400000001,-221.99878999999999,-0.43511018
98.537109,-222.73847999999998,-0.43670684
98.737305,-223.56966,-0.43754131
98.9375,-224.30856,-0.43889433
99.137695,-225.13449,-0.44013411
99.337891,-225.92386000000002,-0.44103414
99.53808599999999,-226.4761,-0.44168755
99.738281,-227.33772000000002,-0.44239312
99.938477,-228.28769,-0.44408068
100.13866999999999,-229.08571,-0.44531897
100.33887,-229.95197000000002,-0.44596642
100.53905999999999,-230.62326000000002,-0.44735894
100.73926,-231.50992000000002,-0.44867992
100.93945,-232.06827,-0.44913441
101.13965,-233.01167,-0.45034662
101.33984,-233.66269,-0.45108050000000005
101.54004,-234.44463,-0.45209527
101.74023000000001,-235.38632,-0.45359805
101.94043,-236.03572000000003,-0.45484304
102.14063,-236.93935,-0.45562312
102.34082,-237.62601,-0.45652166
102.54101999999999,-238.39801,-0.4580005999999999
102.74121,-239.0491,-0.45872927
102.94141,-240.09467,-0.45936182
103.1416,-240.6409,-0.46009421
103.3418,-241.55547,-0.46207607
103.54199,-242.47173999999998,-0.46306998
103.74219000000001,-243.13565,-0.46337172
103.94238,-243.90972999999997,-0.46508759
104.14258000000001,-244.58982999999998,-0.46609119
104.34277,-245.59686000000002,-0.46708807
104.54297,-246.19983,-0.46816245
104.74316,-246.89189,-0.46894252
104.94336000000001,-247.90673999999999,-0.47009066
105.14355,-248.66586,-0.47134459
105.34375,-249.46062999999998,-0.47211349
105.54395,-250.09221000000002,-0.47347993
105.74413999999999,-250.80289,-0.47395155
105.94434,-251.74177999999998,-0.47513469999999997
106.14453,-252.43169,-0.47622323
106.34473,-253.14642,-0.47768205
106.54491999999999,-253.87851,-0.47852695
106.74512,-254.76187000000002,-0.47956631
106.94531,-255.57677999999999,-0.48012659
107.14551000000002,-256.37747,-0.48150569
107.3457,-257.19754,-0.48226267
107.5459,-257.9068,-0.48356801
107.74609,-258.62543,-0.48501492
107.94628999999999,-259.50613,-0.48571676
108.14648000000001,-260.19247,-0.48642755
108.34668,-261.05746,-0.48771948
108.54688,-261.88812,-0.48857331
108.74707,-262.45554,-0.48920512
108.94726999999999,-263.42365,-0.49075857
109.14746000000001,-264.08554,-0.49174875
109.34766,-265.02963,-0.49272925
109.54785,-265.78354,-0.49323589
109.74805,-266.39404,-0.49484819
109.94823999999998,-267.22461,-0.49556121
110.14844,-268.01886,-0.49719736
110.34863,-268.84705,-0.49778596
110.54883000000001,-269.82565,-0.4991889
110.74902,-270.39977999999996,-0.49987733
110.94922,-271.21719,-0.50087124
111.14941,-272.02112,-0.50186664
111.34961000000001,-272.78302,-0.50257671
111.5498,-273.5163,-0.50395429
111.75,-274.33884,-0.50445271
111.9502,-275.19574,-0.50608367
112.15038999999999,-275.7941,-0.50712895
112.35059,-276.77814,-0.50806254
112.55078,-277.47354,-0.50887394
112.75098,-278.34384,-0.51044154
112.95116999999999,-279.09854,-0.51128268
113.15137,-279.73868,-0.51215219
113.35156,-280.6828,-0.51299703
113.55176000000002,-281.40076,-0.51453859
113.75195,-282.13086,-0.5146577999999999
113.95215,-282.89898999999997,-0.51633942
114.15234,-283.59662000000003,-0.51722825
114.35253999999999,-284.47571,-0.51828551
114.55273000000001,-285.31464,-0.51906705
114.75293,-286.06866,-0.52015412
114.95313,-286.55972,-0.52133131
115.15332,-287.55188,-0.52272153
115.35351999999999,-288.23624,-0.5235039
115.55371000000001,-289.03943,-0.52475333
115.75391,-289.92734,-0.52536952
115.9541,-290.70078,-0.52636039
116.1543,-291.31586,-0.52721351
116.35448999999998,-292.25607,-0.52905381
116.55469,-293.04486,-0.52993894
116.75488,-293.88403,-0.53069961
116.95508000000001,-294.65262,-0.53178817
117.15527,-295.4248,-0.53298026
117.35547,-296.14044,-0.53391981
117.55566,-296.88678,-0.53526235
117.75586000000001,-297.72458,-0.53601861
117.95605,-298.48812999999996,-0.53768456
118.15625,-299.26912999999996,-0.5381151999999999
118.35645,-300.06085,-0.53955466
118.55663999999999,-300.66965,-0.53948462
118.75684,-301.46094,-0.54085404
118.95703,-302.47684,-0.54227936
119.15723,-303.19806,-0.5434826
119.35741999999999,-303.92447000000004,-0.54460537
119.55762,-304.80817,-0.5452170999999999
119.75781,-305.59827,-0.54650831
119.95801000000002,-306.26852,-0.54712224
120.1582,-307.03902999999997,-0.54826736
120.3584,-307.9184,-0.54982376
120.55859,-308.56531,-0.55087507
120.75878999999999,-309.46851000000004,-0.55192339
120.95898000000001,-310.00281,-0.55323541
121.15918,-311.11725,-0.55376887
121.35938,-311.73382999999995,-0.55514801
121.55957,-312.47064,-0.55629539
121.75976999999999,-313.49225,-0.55720735
121.95996000000001,-314.27145,-0.55786145
122.16016,-314.82779,-0.55906701
122.36035,-315.77246,-0.56027174
122.56055,-316.53134,-0.56137741
122.76073999999998,-317.36041,-0.5624063
122.96094,-318.0752,-0.56346655
123.16113,-318.90402,-0.56433308
123.36133000000001,-319.52405,-0.56579638
123.56152,-320.39236,-0.56647211
123.76172,-320.94019,-0.56703758
123.96191,-322.1434,-0.56889802
124.16211000000001,-322.69363,-0.56961846
124.3623,-323.39139,-0.57132769
124.5625,-324.21347000000003,-0.57192296
124.7627,-325.09567000000004,-0.57339072
124.96288999999999,-325.83367999999996,-0.57384443
125.16309,-326.66287,-0.57541502
125.36328,-327.40472,-0.57635236
125.56348,-327.96796,-0.57683885
125.76366999999999,-328.92349,-0.57842064
125.96387,-329.79138,-0.57985336
126.16406,-330.5025,-0.58079213
126.36426000000002,-331.24429,-0.58220178
126.56445,-331.99365,-0.58288872
126.76465,-332.87042,-0.58347952
126.96484,-333.76093,-0.58514923
127.16503999999999,-334.28769,-0.58586967
127.36523000000001,-335.21381,-0.58689046
127.56543,-335.98427999999996,-0.58813465
127.76563,-336.6893,-0.58979619
127.96582,-337.72342000000003,-0.59103298
128.16602,-338.52664,-0.59219003
128.36621,-338.94559,-0.59253204
128.56641000000002,-339.84689,-0.59422183
128.7666,-340.52551,-0.59487224
128.9668,-341.43771,-0.59594285
129.16699,-342.05264,-0.59708208
129.36719,-343.01489,-0.59842765
129.56738,-343.69049,-0.5992502
129.76758,-344.56424,-0.60109794
129.96777,-345.24744,-0.60106885
130.16797,-345.97772000000003,-0.60287786
130.36816000000002,-346.86069,-0.60388893
130.56836,-347.59387000000004,-0.60531646
130.76855,-348.50015,-0.60593557
130.96875,-349.2063,-0.60708892
131.16895,-350.03087999999997,-0.60784519
131.36914,-350.84705,-0.60984641
131.56933999999998,-351.67699999999996,-0.61003268
131.76953,-352.35437,-0.61172694
131.96973,-353.07937999999996,-0.61297864
132.16992,-353.96622,-0.61414689
132.37012,-354.66162,-0.6144166
132.57031,-355.50253,-0.61606693
132.77051,-356.13074,-0.61710328
132.9707,-356.84195,-0.6177335999999999
133.1709,-357.97797,-0.61941296
133.37108999999998,-358.57837,-0.62036365
133.57129,-359.461,-0.62155795
133.77148,-360.15689,-0.62317622
133.97168,-360.96045,-0.623595
134.17188000000002,-361.80032,-0.62457395
134.37207,-362.51703,-0.62581527
134.57227,-363.37631,-0.62719882
134.77246,-364.28311,-0.62872022
134.97266000000002,-364.86804,-0.63000989
135.17285,-365.63802999999996,-0.630261
135.37305,-366.20218,-0.63107085
135.57324,-367.21402,-0.63257742
135.77344,-368.11548,-0.63429105
135.97363,-368.67471,-0.63506365
136.17383,-369.65164,-0.63590634
136.37402,-370.26342999999997,-0.63728166
136.57422,-371.07596,-0.63846409
136.77441000000002,-371.89594,-0.63944161
136.97461,-372.57922,-0.64052868
137.1748,-373.37677,-0.64151216
137.375,-374.10919,-0.64263868
137.5752,-375.02847,-0.64401776
137.77539,-375.68655,-0.64533949
137.97558999999998,-376.55576,-0.64600182
138.17578,-377.27151000000003,-0.64739215
138.37598,-378.18689,-0.64926893
138.57617,-378.96979,-0.65018904
138.77637,-379.56203999999997,-0.6505847
138.97656,-380.43323,-0.6519295
139.17676,-381.15921000000003,-0.65340769
139.37695,-382.09628,-0.6544106
139.57715,-382.72008999999997,-0.65475255
139.77733999999998,-383.54669,-0.65661895
139.97754,-384.47546,-0.65810382
140.17773,-385.01395,-0.65888691
140.37793,-385.88315,-0.66013563
140.57813000000002,-386.63861,-0.66092461
140.77832,-387.30792,-0.66228956
140.97852,-388.34561,-0.66285658
141.17871,-388.90884,-0.66430718
141.37891000000002,-389.77402,-0.6654464
141.5791,-390.61295,-0.66679418
141.7793,-391.2464,-0.66773295
141.97949,-392.13144,-0.66915601
142.17969,-393.11172,-0.67063797
142.37988,-393.78927999999996,-0.67165565
142.58008,-394.47162000000003,-0.67263913
142.78027,-395.50067,-0.67382085
142.98047,-396.16354,-0.67482889
143.18066000000002,-396.92548,-0.67605525
143.38086,-397.5401,-0.67707598
143.58105,-398.53146,-0.67823827
143.78125,-399.29254,-0.67903173
143.98145,-400.01337,-0.68063068
144.18164,-400.74432,-0.6815486
144.38183999999998,-401.61182,-0.68280625
144.58203,-402.29352,-0.68377328
144.78223,-403.19147000000004,-0.68524033
144.98242,-403.92041,-0.68592203
145.18262,-404.72208,-0.68749714
145.38281,-405.44177,-0.68844408
145.58301,-406.3725,-0.68931353
145.7832,-407.14319,-0.69091249
145.9834,-407.84567000000004,-0.69255233
146.18358999999998,-408.74692000000005,-0.69316775
146.38379,-409.42456,-0.69430244
146.58398,-410.27267,-0.69562197
146.78418,-410.94516,-0.69691986
146.98438000000002,-411.76328,-0.69762021
147.18457,-412.45435,-0.69892037
147.38477,-413.16638,-0.70067495
147.58496,-413.97873,-0.70134771
147.78516000000002,-414.91861,-0.70251596
147.98535,-415.69965,-0.70385784
148.18555,-416.48956,-0.70469826
