time [s],Force [kN],Transducer [mm]
30.331055,-1.6534011000000002,-0.0030450523
30.53125,-2.4942887000000002,-0.0067554414
30.731445,-3.2829437000000006,-0.010234863
30.931641,-4.0574985,-0.014581531000000002
31.131836,-4.7840309,-0.018105656
31.332031,-5.0742908,-0.019803643
31.532227000000002,-5.9090619,-0.022711605
31.732421999999996,-7.0261664,-0.027673692000000003
31.932616999999997,-7.9951277,-0.031415372999999996
32.132813,-8.755866099999999,-0.034427643
32.333008,-9.4843779,-0.036849827
32.533203,-10.285677,-0.04016459
32.733398,-11.059569,-0.042654574
32.933594,-11.931348,-0.044985860999999995
33.133789,-12.860307,-0.047973543
33.333984,-13.646956,-0.050225854
33.53418,-14.486032000000002,-0.052905083
33.734375,-15.210409,-0.05537793
33.93457,-16.033669,-0.057224929
34.134766,-16.790615,-0.059726834000000006
34.334961,-17.541542,-0.061200559
34.535156,-18.337086,-0.063414872
34.735352,-19.09234,-0.065680593
34.935547,-19.835167000000002,-0.067143142
35.135742,-20.684591,-0.070123374
35.335938,-21.44557,-0.07126405799999999
35.536133,-22.203445000000002,-0.073491037
35.736328,-22.996599,-0.075533241
35.936523,-23.726357999999998,-0.077046454
36.136719,-24.509583,-0.079194456
36.336914,-25.295486,-0.08071959
36.537109,-26.049385,-0.082645565
36.737305,-26.818959999999997,-0.08466988800000001
36.9375,-27.57745,-0.086364895
37.137695,-28.383352000000002,-0.08745268
37.337891,-29.197443,-0.08938908599999999
37.538086,-29.902802,-0.09103417400000001
37.738281,-30.73558,-0.09341239900000001
37.938477,-31.526521999999996,-0.095091015
38.138672,-32.265137,-0.09641423800000001
38.338867,-33.06485,-0.09839385699999999
38.539063,-33.870712,-0.099651515
38.739258,-34.654461,-0.10143518
38.939453,-35.39587,-0.10354295
39.139648,-36.216076,-0.10523424
39.339844,-36.98814,-0.10607168
39.540039,-37.745213,-0.10794997
39.740234,-38.518353000000005,-0.10986552
39.94043,-39.306232,-0.11127964
40.140625,-40.065681,-0.1132749
40.34082,-40.865809999999996,-0.11422485
40.541016,-41.660759000000006,-0.11595413
40.741211,-42.396378000000006,-0.11693984
40.941406,-43.169399,-0.11928305
41.141602,-44.001343,-0.12063906
41.341797,-44.792598999999996,-0.122004
41.541992,-45.534702,-0.12327731
41.742188,-46.367160999999996,-0.12521297
41.942383,-47.138241,-0.12635812
42.142578,-47.877155,-0.12806058
42.342773,-48.685978000000006,-0.12931153
42.542969,-49.450516,-0.13100430000000002
42.743164,-50.215824,-0.13240501
42.943359,-51.004635,-0.13390034
43.143555,-51.799183,-0.13578981
43.34375,-52.573303,-0.13689101
43.543945,-53.317616,-0.13831481
43.744141,-54.122429000000004,-0.13960749
43.944336,-54.934498,-0.14164373
44.144531,-55.668755000000004,-0.14240667
44.344727,-56.448704000000006,-0.14401227
44.544922,-57.23873100000001,-0.14580339
44.745117,-58.044022,-0.14674366
44.945313,-58.780593999999994,-0.14834553
45.145508,-59.605949,-0.14992207
45.345703,-60.43800400000001,-0.15159398
45.545898,-61.143848,-0.15246794
45.746094,-61.925594,-0.1536794
45.946289,-62.735638,-0.15553162
46.146484,-63.509766000000006,-0.15687048
46.34668,-64.268631,-0.15787631
46.546875,-65.073524,-0.15949979
46.74707,-65.846695,-0.16072914
46.947266,-66.59416999999999,-0.16232505
47.147461,-67.385124,-0.16372129
47.347656,-68.173523,-0.16480461
47.547852,-68.932793,-0.16662627
47.748047,-69.728111,-0.16797557
47.948242,-70.528908,-0.16909912
48.148438,-71.28164699999999,-0.1703687
48.348633,-72.08129100000001,-0.17190948
48.548828,-72.881004,-0.17328784
48.749023,-73.61460100000001,-0.17441213
48.949219,-74.407173,-0.17563701
49.149414,-75.206017,-0.17654225
49.349609,-76.010452,-0.17812476
49.549805,-76.753815,-0.17933398
49.75,-77.52063000000001,-0.18041581
49.950195,-78.354462,-0.18245354
50.150391,-79.12702900000001,-0.18336698
50.350586,-79.870758,-0.18454939
50.550781,-80.673645,-0.18606037
50.750977,-81.459496,-0.18751994
50.951172,-82.260475,-0.18803403
51.151367,-83.00263199999999,-0.19014105
51.351563,-83.825981,-0.19096732
51.551758,-84.60724599999999,-0.19246191
51.751953,-85.358711,-0.19340888
51.952148,-86.146652,-0.19505695
52.152344,-86.949554,-0.19612014
52.352539,-87.68472299999999,-0.19734576
52.552733999999994,-88.494148,-0.19861758
52.752930000000006,-89.27922099999999,-0.19983128
52.953125,-90.021378,-0.20133927
53.153319999999994,-90.798096,-0.20222142
53.353516000000006,-91.614754,-0.20361468
53.553711,-92.379997,-0.20432174
53.75390600000001,-93.156143,-0.20602942
53.954102,-93.96714,-0.20745546
54.154297,-94.772026,-0.20826608
54.35449200000001,-95.529503,-0.21006837
54.554688,-96.291779,-0.21094531
54.75488299999999,-97.100792,-0.21175295
54.955078,-97.870651,-0.21295100000000003
55.155273,-98.599365,-0.21464527
55.35546899999999,-99.433022,-0.21550357
55.555664,-100.20770999999999,-0.21701306
55.755858999999994,-100.92557,-0.21820292
55.956055000000006,-101.78365,-0.21944419
56.15625,-102.56853000000001,-0.22030622
56.356444999999994,-103.3153,-0.22130683
56.556641000000006,-104.08791,-0.22259057
56.756836,-104.92881000000001,-0.22372379999999997
56.95703100000001,-105.66648,-0.22508949
57.157227,-106.41891000000001,-0.22601709
57.357422,-107.24816000000001,-0.22695139
57.55761700000001,-108.04137,-0.22855923
57.757813,-108.79082,-0.22923276
57.95800799999999,-109.56517,-0.23050308
58.158203,-110.34956000000001,-0.23160949
58.358398,-111.11956,-0.23283511
58.55859399999999,-111.86426999999999,-0.23377165
58.758789,-112.70693,-0.23510829
58.958983999999994,-113.5035,-0.23679286
59.159180000000006,-114.24243,-0.23696125
59.359375,-115.06918,-0.23869127
59.559569999999994,-115.84716999999999,-0.23948923
59.759766000000006,-116.56638999999998,-0.24068132
59.959961,-117.37338999999999,-0.24221539
60.16015600000001,-118.16406,-0.24269074
60.360352,-118.9167,-0.24383664
60.560547,-119.69418999999999,-0.24543107
60.76074200000001,-120.48747,-0.24586841
60.960938,-121.31409,-0.24702847
61.16113299999999,-121.99183000000001,-0.24796501
61.361328,-122.8797,-0.24981722
61.561523,-123.63553999999999,-0.25040731
61.76171899999999,-124.42993999999999,-0.25155246
61.961914,-125.18168999999999,-0.25225207
62.162108999999994,-125.96343,-0.25323704
62.362305000000006,-126.72802,-0.25467053
62.5625,-127.52358999999998,-0.25568232
62.762694999999994,-128.32056,-0.2572909
62.962891000000006,-129.13916,-0.25780573
63.163086,-129.80896,-0.25871173
63.36328100000001,-130.61067,-0.25966093
63.563477,-131.438,-0.26117638
63.763672,-132.19415,-0.26157051
63.96386700000001,-132.97879,-0.26312321
64.164063,-133.7876,-0.26376694
64.36425799999999,-134.59195,-0.26491508
64.564453,-135.32178000000002,-0.26531443
64.764648,-136.10721,-0.26719570000000004
64.964844,-136.9427,-0.2679348
65.16503900000001,-137.65485,-0.26880652
65.365234,-138.46954,-0.26994944
65.56543,-139.27031000000002,-0.27074814
65.765625,-140.00066,-0.27212352
65.96582,-140.74876,-0.27258843
66.166016,-141.55692,-0.27402043
66.36621099999999,-142.39484,-0.27445182
66.566406,-143.09233,-0.27564913
66.766602,-143.88887,-0.27678459999999994
66.966797,-144.71483999999998,-0.27769431
67.16699200000001,-145.44326999999998,-0.27902052
67.367188,-146.24324,-0.27985275
67.56738299999999,-147.07961,-0.28101279999999995
67.767578,-147.81941,-0.28121993
67.967773,-148.60426,-0.28251186
68.167969,-149.41295,-0.28328821
68.36816400000001,-150.19353,-0.28478652
68.568359,-150.95651,-0.28532892
68.768555,-151.67506,-0.28660148
68.96875,-152.49495,-0.28740987
69.168945,-153.25139,-0.28841421
69.369141,-154.01181,-0.28918236
69.56933599999999,-154.81436000000002,-0.29030293
69.769531,-155.61874,-0.29137135
69.969727,-156.34831,-0.29226914
70.169922,-157.18164,-0.29352084
70.37011700000001,-157.9939,-0.29407889
70.570313,-158.72929,-0.29531866
70.77050799999999,-159.51733000000002,-0.2965264
70.970703,-160.34845,-0.29766932
71.170898,-161.09451,-0.29821992
71.371094,-161.86966,-0.29921383
71.57128900000001,-162.65544,-0.29993653
71.771484,-163.43842,-0.30065849
71.97168,-164.11838,-0.30160993
72.171875,-164.95018000000002,-0.30282363
72.37207,-165.69507,-0.30357689
72.572266,-166.51277,-0.30485988
72.77246099999999,-167.28658000000001,-0.30544698
72.972656,-168.12794,-0.30675605
73.172852,-168.91289,-0.30763745
73.373047,-169.63181,-0.30815005
73.57324200000001,-170.46736,-0.30909702
73.773438,-171.24344,-0.31014159
73.97363299999999,-172.00083999999998,-0.3112033
74.173828,-172.79118,-0.31248853
74.374023,-173.62506000000002,-0.3131099
74.574219,-174.38099999999997,-0.31384751
74.77441400000001,-175.09933,-0.31430572
74.974609,-175.93236000000002,-0.31615868
75.174805,-176.7238,-0.3172107
75.375,-177.46837,-0.31766891
75.575195,-178.27979,-0.31923726
75.775391,-179.11113,-0.31983331
75.97558599999999,-179.76422,-0.32039881
76.175781,-180.6133,-0.32130703
76.375977,-181.40567,-0.32228678
76.576172,-182.22435,-0.3232412
76.77636700000001,-182.95383,-0.32447651
76.976563,-183.74747,-0.32540858
77.17675799999999,-184.513,-0.32630861
77.376953,-185.28308,-0.32729357
77.577148,-185.99156000000002,-0.32791644
77.777344,-186.83118000000002,-0.32840669
77.97753900000001,-187.59900000000002,-0.32932088
78.177734,-188.3947,-0.33076406
78.37793,-189.14866999999998,-0.3310442
78.578125,-190.02761999999998,-0.33260733
78.77832,-190.77177,-0.33317879
78.978516,-191.63405,-0.33445209
79.17871099999999,-192.29541,-0.33561736
79.378906,-193.05301,-0.33616871
79.579102,-193.87042,-0.33680126
79.779297,-194.68921,-0.33783764
79.97949200000001,-195.4547,-0.33908635
80.179688,-196.22984,-0.34033805
80.37988299999999,-196.9816,-0.34049675
80.580078,-197.77719,-0.34108236
80.780273,-198.5271,-0.34226701
80.980469,-199.31956,-0.34329891
81.18066400000001,-200.20493000000002,-0.34437776
81.380859,-201.00058,-0.34507513
81.581055,-201.6064,-0.34575015
81.78125,-202.43723,-0.34689307
81.981445,-203.21786,-0.34742579
82.181641,-203.96123,-0.34865959999999996
82.38183599999999,-204.77847,-0.34941807
82.582031,-205.61751,-0.35033524
82.782227,-206.34128,-0.35116971
82.982422,-207.13762,-0.35236403
83.18261700000001,-207.95027,-0.35264269
83.382813,-208.68115,-0.35357773
83.58300799999999,-209.48495,-0.35422072
83.783203,-210.26827999999998,-0.35554767
83.983398,-211.06694,-0.35639778
84.183594,-211.80119,-0.357043
84.38378900000001,-212.61077999999998,-0.35811514
84.583984,-213.42809,-0.35924092
84.78418,-214.18257000000003,-0.35979822
84.984375,-214.97711,-0.36068633
85.18457,-215.76324,-0.36184043
85.384766,-216.52687000000003,-0.36274046
85.58496099999999,-217.31243999999998,-0.36299452
85.785156,-218.09859,-0.36444739
85.985352,-218.88196000000002,-0.36518425
86.185547,-219.62832999999998,-0.36615506
86.38574200000001,-220.43982000000003,-0.36729947
86.585938,-221.22838,-0.36810488
86.78613299999999,-221.96847999999997,-0.36872774
86.986328,-222.77684,-0.36993399
87.186523,-223.60048999999998,-0.36995932
87.386719,-224.35825,-0.37117526
87.58691400000001,-225.07764,-0.37221834
87.787109,-225.91106000000002,-0.37307292
87.987305,-226.72351,-0.37381053
88.1875,-227.4126,-0.37530959
88.387695,-228.24194,-0.37598312
88.587891,-229.0405,-0.37650615
88.78808599999999,-229.77727000000002,-0.37735254
88.988281,-230.59497000000002,-0.37814751
89.188477,-231.4102,-0.37893802
89.388672,-232.16606000000002,-0.37977546
89.58886700000001,-232.92477000000002,-0.38080439
89.789063,-233.6803,-0.38160086
89.98925799999999,-234.50696000000002,-0.38274378
90.189453,-235.22987,-0.38353875
90.389648,-236.03838,-0.38426146
90.589844,-236.82477999999998,-0.38494617
90.79003900000001,-237.58835,-0.38591027
90.990234,-238.40381000000002,-0.38702264
91.19043,-239.18599,-0.38827807
91.390625,-239.97189,-0.38855374
91.59082,-240.71365,-0.38938001
91.791016,-241.51987999999997,-0.39040968
91.99121099999999,-242.35385,-0.39132535
92.191406,-243.07643,-0.39212629
92.391602,-243.82367000000002,-0.39300099
92.591797,-244.69032,-0.39377436
92.79199200000001,-245.36876,-0.39402544
92.992188,-246.15103,-0.3959395
93.19238299999999,-246.98206000000002,-0.39604306
93.392578,-247.76997000000003,-0.39677247
93.592773,-248.50801,-0.39796606
93.792969,-249.31294,-0.39871186
93.99316400000001,-250.11597999999998,-0.39936826
94.193359,-250.86677999999998,-0.40057972
94.393555,-251.64867,-0.40099695
94.59375,-252.48326,-0.40226281
94.793945,-253.22543,-0.40311292
94.994141,-253.96797,-0.40411726
95.19433599999999,-254.79907000000003,-0.40462762
95.394531,-255.58136000000002,-0.40517896
95.594727,-256.32327000000004,-0.40612146
95.794922,-257.10787999999997,-0.40716529
95.99511700000001,-257.90167,-0.40815994
96.195313,-258.67562999999996,-0.40900186
96.39550799999999,-259.43359,-0.40966645
96.595703,-260.26358,-0.41057765
96.795898,-261.03717,-0.41143820000000003
96.996094,-261.77371,-0.41190162
97.19628900000001,-262.57297,-0.41268617
97.396484,-263.4357,-0.41411892
97.59668,-264.1503,-0.41455999
97.796875,-264.87778,-0.41555017
97.99707,-265.77263999999997,-0.41640177
98.197266,-266.48578,-0.41722432
98.39746099999999,-267.2485,-0.4182674
98.597656,-268.08468999999997,-0.41930303
98.797852,-268.84512,-0.41956156
98.998047,-269.59533999999996,-0.42034239
99.19824200000001,-270.37125,-0.42116642
99.398438,-271.18021,-0.42179525
99.59863299999999,-271.93445,-0.42369068
99.798828,-272.71222,-0.42411834
99.999023,-273.51871,-0.42506829
100.19922,-274.29651,-0.42597577
100.39941,-275.05984,-0.42660459999999994
100.59961,-275.84698,-0.42756647
100.7998,-276.65713999999997,-0.428354
101.0,-277.42291,-0.42902231
101.2002,-278.23587000000003,-0.43029413
101.40039,-278.99179,-0.43074191
101.60059,-279.76025,-0.43167099
101.80078,-280.51669,-0.43258816
102.00098,-281.31424,-0.43327659
102.20116999999999,-282.1427,-0.4343681
102.40137,-282.8317,-0.43501705
102.60155999999999,-283.61234,-0.43600202
102.80176,-284.4281,-0.43685809
103.00195,-285.23077,-0.43735281
103.20215,-286.00278,-0.43783635
103.40234,-286.82791000000003,-0.43878332
103.60254,-287.59851000000003,-0.43971762
103.80273000000001,-288.33722,-0.44104904
104.00293,-289.1268,-0.44174492
104.20313,-289.92343,-0.44197068
104.40332,-290.68451,-0.44387429999999994
104.60351999999999,-291.52002000000005,-0.44427589
104.80371,-292.29787999999996,-0.44523627
105.00391,-293.03283999999996,-0.44610053
105.2041,-293.75507000000005,-0.44627786
105.4043,-294.59398999999996,-0.44746548
105.60448999999998,-295.43112,-0.4485622
105.80469,-296.15027000000003,-0.449121
106.00488,-296.96362,-0.4496187
106.20508000000001,-297.76114,-0.45097172
106.40527,-298.51682,-0.45169890000000007
106.60547,-299.2778,-0.45275241
106.80566,-300.08566,-0.45334101
107.00586000000001,-300.81949,-0.45424551
107.20605,-301.59845,-0.45442358
107.40625,-302.43146,-0.45573859999999994
107.60645,-303.18271,-0.45674071
107.80663999999999,-303.96338,-0.45737252
108.00684,-304.74292,-0.45815706
108.20703,-305.55191,-0.45894979999999996
108.40723,-306.30984,-0.4598178
108.60741999999999,-307.14874,-0.46061352
108.80762,-307.9306,-0.46124533
109.00781,-308.68546000000003,-0.46180487
109.20801000000002,-309.38071,-0.46334043
109.4082,-310.24634,-0.46454668
109.6084,-310.98098999999996,-0.46475232
109.80859,-311.72238,-0.46554729
110.00878999999999,-312.5408,-0.46663955
110.20898000000001,-313.32178,-0.46733469
110.40918,-314.08832,-0.46831518
110.60938,-314.8949,-0.46879351
110.80957,-315.71477999999996,-0.4699178
111.00976999999999,-316.46832,-0.47034547
111.20996000000001,-317.24973,-0.47132522
111.41016,-318.08447,-0.47222152
111.61035,-318.83453,-0.47317743
111.81055,-319.60339,-0.47401711
112.01073999999998,-320.39331,-0.47499239
112.21094,-321.17312999999996,-0.47534406
112.41113,-321.93523999999996,-0.47622696
112.61133000000001,-322.7251,-0.4767105
112.81152,-323.53647,-0.47803149
113.01172,-324.27707000000004,-0.47873929
113.21191,-324.99942000000004,-0.47922507
113.41211000000001,-325.80231000000003,-0.48043728
113.6123,-326.56165,-0.48071668
113.8125,-327.33493,-0.48195422
114.0127,-328.1311,-0.48262551
114.21288999999999,-328.95142000000004,-0.48370734
114.41309,-329.71075,-0.48424006
114.61328,-330.4639,-0.48522129999999997
114.81348,-331.31229,-0.48624128
115.01366999999999,-332.11638999999997,-0.48728958
115.21387,-332.87369,-0.48779771
115.41406,-333.64609,-0.48890337
115.61426000000002,-334.38467,-0.48966109999999996
115.81445,-335.1767,-0.49039647
116.01465,-335.98621,-0.490655
116.21484,-336.75671,-0.49218982
116.41503999999999,-337.53076,-0.49232692
116.61523000000001,-338.28159,-0.49334392
116.81543,-339.05163999999996,-0.49382746
117.01563,-339.85199,-0.49479976
117.21582,-340.64117000000005,-0.49619898
117.41601999999999,-341.44464,-0.49630627
117.61621000000001,-342.27567,-0.49755722
117.81641,-343.01038,-0.49821138
118.0166,-343.79156,-0.49897134
118.2168,-344.55566,-0.500305
118.41698999999998,-345.33563,-0.50075203
118.61719,-346.13684,-0.50248277
118.81738,-346.89783,-0.50246787
119.01758000000001,-347.70172,-0.50379485
119.21777,-348.42647999999997,-0.50446838
119.41797,-349.2464,-0.50492358
119.61816,-350.0209,-0.50596446
119.81836000000001,-350.78549,-0.50688684
120.01855,-351.5603,-0.5073607
120.21875,-352.37479,-0.508596
120.41895,-353.16418,-0.5092442
120.61913999999999,-353.88556,-0.50966591
120.81934,-354.73888999999997,-0.51054883
121.01953,-355.51807,-0.51181543
121.21973,-356.25064,-0.51254779
121.41991999999999,-356.9968,-0.51384568
121.62012,-357.82419,-0.51427335
121.82031,-358.54596000000004,-0.51513386
122.02051000000002,-359.34235,-0.51565021
122.2207,-360.14072000000004,-0.51691681
122.4209,-360.95535,-0.51749575
122.62109,-361.71367999999995,-0.51873994
122.82128999999999,-362.51981,-0.51931071
123.02148000000001,-363.31543,-0.51995444
123.22168,-364.08871,-0.5207442
123.42188,-364.875,-0.52171499
123.62207,-365.70209,-0.52255321
123.82226999999999,-366.44424,-0.52307177
124.02246000000001,-367.21582,-0.52419603
124.22266,-368.02109,-0.52468252
124.42285,-368.79611,-0.52603483
124.62305,-369.52396,-0.52693784
124.82323999999998,-370.33206,-0.52700269
125.02344,-371.14052999999996,-0.52812469
125.22363,-371.88116,-0.52888918
125.42383000000001,-372.65463,-0.52982122
125.62402,-373.43712999999997,-0.53074062
125.82422,-374.215,-0.53173602
126.02441,-374.95581,-0.532601
126.22461000000001,-375.78817999999995,-0.5330986999999999
126.4248,-376.62711,-0.53390932
126.625,-377.38785,-0.53505152
126.8252,-378.14194,-0.53550601
127.02538999999999,-378.91592,-0.53633451
127.22559,-379.70416,-0.53748339
127.42578,-380.45621,-0.53777027
127.62598,-381.23633,-0.53848624
127.82616999999999,-382.0289,-0.53983557
128.02637,-382.81961,-0.54061782
128.22656,-383.59656,-0.54120868
128.42676,-384.37476000000004,-0.54230917
128.62695,-385.15033,-0.54302812
128.82715,-385.95813,-0.54370761
129.02733999999998,-386.74011,-0.54464638
129.22754,-387.51653999999996,-0.54540038
129.42773,-388.25549,-0.54604936
129.62793,-389.10452000000004,-0.54717886
129.82813000000002,-389.85999,-0.54779202
130.02832,-390.62244,-0.54874051
130.22852,-391.41635,-0.54966581
130.42871,-392.19324,-0.55069554
130.62891000000002,-392.95956,-0.55117381
130.8291,-393.71268,-0.55186749
131.0293,-394.54739,-0.55297166
131.22949,-395.31161000000003,-0.55361688
131.42969,-396.09036000000003,-0.5544908000000001
131.62988,-396.92126,-0.55527616
131.83008,-397.69977,-0.55605841
132.03027,-398.45758,-0.55714774
132.23047,-399.23605,-0.55782795
132.43066000000002,-400.03085,-0.55897903
132.63086,-400.80237,-0.55900365
132.83105,-401.55469,-0.55998039
133.03125,-402.38535,-0.56105185
133.23145,-403.13736,-0.56177676
133.43164,-403.9025,-0.56250763
133.63183999999998,-404.7287,-0.56353736
133.83203,-405.49408,-0.56435537
134.03223,-406.22836,-0.56547153
134.23242,-407.02289,-0.56549311
134.43262,-407.80057,-0.56598556
134.63281,-408.59479,-0.56750625
134.83301,-409.33569,-0.56801289
135.0332,-410.15717,-0.56921989
135.2334,-410.93532999999996,-0.57001042
135.43358999999998,-411.69097999999997,-0.57062805
135.63379,-412.53033,-0.57149082
135.83398,-413.30023,-0.5726285
136.03418,-414.07025,-0.57340193
136.23438000000002,-414.853,-0.5742259
136.43457,-415.65164,-0.57489276
