time [s],Force [kN],Transducer [mm]
25.072266,-1.603458,-0.003644824
25.272461,-2.4012699,-0.009340047800000001
25.472656,-2.9681568,-0.018721819
25.672852,-3.836561,-0.03336072
25.873047,-4.7336369000000005,-0.045526027999999996
26.073242,-5.529358900000001,-0.054758787
26.273438,-6.0877595,-0.061312318
26.473633000000003,-6.5299001,-0.06653070400000001
26.673828000000004,-7.5516572,-0.073704123
26.874022999999998,-8.8086061,-0.082623959
27.074219,-9.6450377,-0.08828639999999999
27.274414,-10.335637,-0.09420216099999999
27.474609,-11.127744,-0.09799897699999999
27.674805,-11.855907,-0.10264814
27.875,-12.691991,-0.10623932
28.075195,-13.562384,-0.11175573
28.275391,-14.411537,-0.11564791
28.475586,-15.227979000000001,-0.11982918
28.675781,-16.051332000000002,-0.12365282
28.875977000000002,-16.832714000000003,-0.12631714
29.076171999999996,-17.602242999999998,-0.12906194
29.276366999999997,-18.383654,-0.13249218
29.476563,-19.10887,-0.1349479
29.676758000000003,-19.911929999999998,-0.13896823
29.876953000000004,-20.655163,-0.14122128
30.077147999999998,-21.40196,-0.14412105
30.277344,-22.201324,-0.14657676
30.477539,-22.960009,-0.15056729
30.677734,-23.763115,-0.15287101
30.87793,-24.496385999999998,-0.15560091
31.078125,-25.309752,-0.15818477
31.27832,-26.073010999999997,-0.16109049
31.478516,-26.820751,-0.16308725
31.678711,-27.623682000000002,-0.16601682
31.878906,-28.368746,-0.16844571
32.079102,-29.175793,-0.17172098
32.279297,-29.920871999999996,-0.17417967
32.479492,-30.748065999999998,-0.17584562
32.679688,-31.490824,-0.17829239
32.879883,-32.273205,-0.18063784
33.080078,-33.065472,-0.18344223
33.280273,-33.850578000000006,-0.18646419
33.480469,-34.606377,-0.18911362
33.680664,-35.37146,-0.19023418
33.880859,-36.228848,-0.19332767
34.081055,-36.94178,-0.19548535
34.28125,-37.769218,-0.19732416
34.481445,-38.531269,-0.20004809
34.681641,-39.306026,-0.20245016
34.881836,-40.058842,-0.20440519
35.082031,-40.845528,-0.20703375
35.282227,-41.641624,-0.20940304
35.482422,-42.399696,-0.21138787
35.682617,-43.231079,-0.21381676
35.882813,-43.978909,-0.21561384
36.083008,-44.764889000000004,-0.217852
36.283203,-45.519764,-0.2205044
36.483398,-46.325153,-0.22247136
36.683594,-47.111458,-0.22533238
36.883789,-47.843365000000006,-0.22767484
37.083984,-48.684414000000004,-0.22949576
37.28418,-49.445057,-0.23107529
37.484375,-50.255215,-0.23389459
37.68457,-51.005592,-0.23597479
37.884766,-51.809779999999996,-0.23803711
38.084961,-52.569828,-0.24045408
38.285156,-53.31829499999999,-0.24277866
38.485352,-54.132427,-0.24517775
38.685547,-54.922343999999995,-0.24664104
38.885742,-55.70771,-0.24869442
39.085938,-56.473152,-0.25107563
39.286133,-57.299834999999995,-0.25359988
39.486328,-58.048401,-0.25578737
39.686523,-58.810364,-0.25724769
39.886719,-59.619061,-0.25962889
40.086914,-60.390152,-0.26188791
40.287109,-61.180035,-0.26427805
40.487305,-61.921211,-0.26653409
40.6875,-62.765675,-0.26836991
40.887695,-63.489158999999994,-0.27034283
41.087891,-64.296227,-0.27278959999999997
41.288086,-65.085884,-0.27483404
41.488281,-65.84648100000001,-0.27734935
41.688477,-66.615753,-0.27849078
41.888672,-67.39494300000001,-0.28131604
42.088867,-68.194183,-0.28344095
42.289063,-68.930695,-0.28564632
42.489258,-69.781425,-0.28732717
42.689453,-70.53137199999999,-0.28960407
42.889648,-71.327805,-0.29142201
43.089844,-72.058807,-0.29359758
43.290039,-72.916199,-0.29494762
43.490234,-73.67394300000001,-0.29799044
43.69043,-74.424583,-0.29982328
43.890625,-75.19351999999999,-0.30162632
44.09082,-76.006714,-0.30384659999999997
44.291016,-76.769577,-0.30571222
44.491211,-77.534325,-0.30738711
44.691406,-78.384857,-0.3100723
44.891602,-79.100311,-0.31146705
45.091797,-79.877052,-0.31319261
45.291992,-80.696045,-0.31610727
45.492188,-81.461472,-0.3172636
45.692383,-82.21444699999999,-0.32005012
45.892578,-83.002098,-0.32253861
46.092773,-83.82558399999999,-0.32416880000000003
46.292969,-84.558052,-0.32564998
46.493164,-85.374397,-0.32796859999999994
46.693359,-86.153549,-0.33042431
46.893555,-86.934799,-0.33210516
47.09375,-87.672005,-0.33394694
47.293945,-88.486839,-0.336501
47.494141,-89.267326,-0.33820271
47.694336,-90.016304,-0.34034252
47.894531,-90.782822,-0.3418833
48.094727,-91.601669,-0.34416318
48.294922,-92.365746,-0.34591556
48.495117,-93.11595200000001,-0.34824014
48.695313,-93.971283,-0.35019815
48.895508,-94.682518,-0.35211742
49.095703,-95.509842,-0.35445392
49.295898,-96.268265,-0.35602748
49.496094,-97.09317,-0.35800636
49.696289,-97.819221,-0.36011636
49.896484,-98.628967,-0.36189258
50.09668,-99.362686,-0.36321878
50.296875,-100.10233000000001,-0.36504865
50.49707,-100.91463,-0.36786199
50.697266,-101.72788,-0.36970377
50.897461,-102.50227,-0.37230253
51.097656,-103.19655999999999,-0.3736645
51.297852,-104.03458,-0.3754735
51.498047,-104.79988,-0.37762523
51.698242,-105.59738,-0.37993193
51.898438,-106.34613999999999,-0.3810823
52.098633,-107.18592,-0.38353503
52.298828,-107.93947,-0.38559139
52.499023,-108.73319,-0.38816929
52.69921899999999,-109.52819,-0.38951635
52.899414,-110.30775,-0.39138198
53.099608999999994,-111.08218000000001,-0.39319694
53.299805000000006,-111.87293999999999,-0.39538145
53.5,-112.68108000000001,-0.39738715
53.700194999999994,-113.42716000000001,-0.39972663
53.900391000000006,-114.21293,-0.40097535
54.100586,-115.00931000000001,-0.40464699
54.30078100000001,-115.82803,-0.40532947
54.500977,-116.56116999999999,-0.40778518
54.701172,-117.40202,-0.40941536
54.90136700000001,-118.16153999999999,-0.41111708
55.101563,-118.94798999999999,-0.41292608
55.30175799999999,-119.70926999999999,-0.41495859999999996
55.501953,-120.5433,-0.41693449
55.702148,-121.27665,-0.41825175
55.90234399999999,-122.03881000000001,-0.4208982
56.102539,-122.83762,-0.42259097
56.302733999999994,-123.61863999999998,-0.42454004
56.502930000000006,-124.37431000000001,-0.42671561
56.703125,-125.16188999999999,-0.42857826
56.903319999999994,-125.99529,-0.43013096
57.103516000000006,-126.70175,-0.43287575
57.303711,-127.51487,-0.43407083
57.50390600000001,-128.29503,-0.43672919
57.704102,-129.08969,-0.43845773
57.904297,-129.84268,-0.44029653
58.10449200000001,-130.6777,-0.4424572
58.304688,-131.44267,-0.44406354
58.50488299999999,-132.19699,-0.44611990000000007
58.705078,-132.98163,-0.44877827
58.905273,-133.77306000000002,-0.44988096
59.10546899999999,-134.52312,-0.45225024
59.305664,-135.30002,-0.45403838
59.505858999999994,-136.14926,-0.45493841
59.706055000000006,-136.86478,-0.45766234
59.90625,-137.66826,-0.45954287
60.106444999999994,-138.45441,-0.46109855
60.306641000000006,-139.23613,-0.46383142
60.506836,-139.98325,-0.46639144
60.70703100000001,-140.76766999999998,-0.46801865
60.907227,-141.60362,-0.46939849999999994
61.107422,-142.32835,-0.4714191
61.30761700000001,-143.13147,-0.47372878
61.507813,-143.90286,-0.47575533
61.70800799999999,-144.67763,-0.47756732
61.908203,-145.45056,-0.47975481
62.108398,-146.23466000000002,-0.48104823
62.30859399999999,-147.03464,-0.48323869999999997
62.508789,-147.77307,-0.48512816
62.708983999999994,-148.60136,-0.48688352
62.909180000000006,-149.3542,-0.48869848
63.109375,-150.13097,-0.49102008
63.309569999999994,-150.90706,-0.49292743
63.509766000000006,-151.69988999999998,-0.49516857
63.709961,-152.49268999999998,-0.49673021
63.91015600000001,-153.22606000000002,-0.49938262
64.110352,-154.07968,-0.50065815
64.310547,-154.82953999999998,-0.50378144
64.51074200000001,-155.61723,-0.50448477
64.710938,-156.38698,-0.50646961
64.91113299999999,-157.18231,-0.50894916
65.111328,-157.96501,-0.51074624
65.311523,-158.71265,-0.51250458
65.511719,-159.54613,-0.51473081
65.71191400000001,-160.30635,-0.51681995
65.912109,-161.0856,-0.5186975
66.112305,-161.85025,-0.52030087
66.3125,-162.67201,-0.52287877
66.512695,-163.41326999999998,-0.52404106
66.712891,-164.20078,-0.52626729
66.91308599999999,-164.99951000000001,-0.52859485
67.113281,-165.72366,-0.53009093
67.313477,-166.52235,-0.53186119
67.513672,-167.31023000000002,-0.53416491
67.71386700000001,-168.14571999999998,-0.5353719
67.914063,-168.83548000000002,-0.53791404
68.11425799999999,-169.67538000000002,-0.53963363
68.314453,-170.4424,-0.54195821
68.514648,-171.23529,-0.54324567
68.714844,-172.00024,-0.54593384
68.91503900000001,-172.81079,-0.54819584
69.115234,-173.58742,-0.54990351
69.31543,-174.35156,-0.55202544
69.515625,-175.15196,-0.55402219
69.71582,-175.92192,-0.55544376
69.916016,-176.70571999999999,-0.55762529
70.11621099999999,-177.4561,-0.55994689
70.316406,-178.2917,-0.5615591999999999
70.516602,-179.0359,-0.56364238
70.716797,-179.84608,-0.56502819
70.91699200000001,-180.60625,-0.56765079
71.117188,-181.42937,-0.56973994
71.31738299999999,-182.15906999999999,-0.57146251
71.517578,-182.97202,-0.57353377
71.717773,-183.76984,-0.57530403
71.917969,-184.50853999999998,-0.5771935
72.11816400000001,-185.29762,-0.57953
72.318359,-186.09888,-0.58080256
72.518555,-186.85675,-0.58278739
72.71875,-187.60594,-0.58451295
72.918945,-188.42546000000002,-0.58676004
73.119141,-189.18752,-0.58882236
73.31933599999999,-189.99835,-0.5910337
73.519531,-190.75291,-0.59307814
73.719727,-191.56624,-0.59504807
73.919922,-192.29668,-0.59717894
74.12011700000001,-193.09355,-0.59940517
74.320313,-193.86711,-0.60033202
74.52050799999999,-194.69333,-0.60353279
74.720703,-195.4361,-0.6054312
74.920898,-196.22488,-0.60742795
75.121094,-197.01871,-0.60870945
75.32128900000001,-197.77588,-0.61066747
75.521484,-198.54599,-0.61264932
75.72168,-199.34439,-0.61469376
75.921875,-200.13828,-0.61717927
76.12207,-200.85977,-0.61852336
76.322266,-201.72508,-0.62094927
76.52246099999999,-202.46036,-0.62312186
76.722656,-203.24126,-0.62462986
76.922852,-204.01572,-0.62716007
77.123047,-204.83032,-0.62901676
77.32324200000001,-205.56155,-0.63088238
77.523438,-206.35596999999999,-0.63317716
77.72363299999999,-207.13652,-0.63520968
77.923828,-207.91521,-0.63636601
78.124023,-208.68541000000002,-0.63959956
78.324219,-209.45309,-0.64075589
78.52441400000001,-210.27837000000002,-0.64341128
78.724609,-211.00757000000002,-0.64513087
78.924805,-211.83151,-0.64758956
79.125,-212.60157999999998,-0.64921379
79.325195,-213.41675,-0.65128803
79.525391,-214.1422,-0.65357089
79.72558599999999,-214.99067999999997,-0.6549865
79.925781,-215.75211000000002,-0.65744817
80.125977,-216.5161,-0.66026747
80.326172,-217.27969,-0.66132247
80.52636700000001,-218.09148,-0.66385567
80.726563,-218.85643,-0.66632032
80.92675799999999,-219.61305,-0.66784024
81.126953,-220.44331,-0.66949725
81.327148,-221.17598999999998,-0.67164898
81.527344,-222.00705,-0.67358315
81.72753900000001,-222.75536,-0.67529082
81.927734,-223.55441000000002,-0.67792237
82.12793,-224.29599,-0.67976713
82.328125,-225.13515,-0.68277121
82.52832,-225.90972999999997,-0.68480372
82.728516,-226.6786,-0.6860584
82.92871099999999,-227.45161000000002,-0.68842173
83.128906,-228.26448,-0.69009364
83.329102,-229.00457999999998,-0.69352686
83.529297,-229.77725,-0.69481134
83.72949200000001,-230.58957,-0.69679618
83.929688,-231.34991000000002,-0.69944859
84.12988299999999,-232.13324,-0.70104003
84.330078,-232.89049,-0.7035464
84.530273,-233.75988999999998,-0.70537329
84.730469,-234.47321000000002,-0.70769191
84.93066400000001,-235.26658999999998,-0.71024299
85.130859,-236.05176,-0.7120043
85.331055,-236.8382,-0.71345866
85.53125,-237.58162000000002,-0.71588159
85.731445,-238.38867000000002,-0.7178992
85.931641,-239.19988999999998,-0.72080791
86.13183599999999,-239.94242999999997,-0.72328448
86.332031,-240.74653999999998,-0.72512031
86.532227,-241.53888999999998,-0.7278502
86.732422,-242.30374,-0.72931945
86.93261700000001,-243.0619,-0.73143244
87.132813,-243.88394,-0.73337257
87.33300799999999,-244.64203999999998,-0.73652267
87.533203,-245.41782,-0.73847771
87.733398,-246.1982,-0.74034631
87.933594,-246.98645,-0.74256063
88.13378900000001,-247.78127,-0.74492097
88.333984,-248.51002999999997,-0.74708164
88.53418,-249.35207000000003,-0.74901283
88.734375,-250.09225,-0.75138211
88.93457,-250.89661,-0.75390637
89.134766,-251.66212000000002,-0.75585246
89.33496099999999,-252.47099,-0.75843632
89.535156,-253.19304,-0.75957477
89.735352,-254.00136,-0.76246858
89.935547,-254.80566000000002,-0.76479912
90.13574200000001,-255.54146,-0.76724887
90.335938,-256.33224,-0.76963902
90.53613299999999,-257.12127999999996,-0.77184737
90.736328,-257.94057999999995,-0.77445805
90.936523,-258.66138,-0.77592134
91.136719,-259.48672,-0.77824891
91.33691400000001,-260.22677999999996,-0.78101456
91.537109,-261.03351000000004,-0.78291893
91.737305,-261.79114,-0.78618824
91.9375,-262.6348,-0.78777075
92.137695,-263.33762,-0.79030097
92.337891,-264.15862999999996,-0.79258978
92.53808599999999,-264.94119,-0.7951050999999999
92.738281,-265.73605,-0.79716742
92.938477,-266.48611,-0.79998374
93.138672,-267.27847,-0.80257654
93.33886700000001,-268.07062,-0.80488622
93.539063,-268.80515,-0.80691874
93.73925799999999,-269.60046,-0.80960393
93.939453,-270.37917999999996,-0.81248879
94.139648,-271.19992,-0.81452429
94.339844,-271.91235,-0.81716776
94.54003900000001,-272.74422999999996,-0.81908405
94.740234,-273.53015,-0.82148314
94.94043,-274.29889,-0.82425475
95.140625,-275.04684,-0.82739294
95.34082,-275.86432,-0.82944632
95.541016,-276.6236,-0.83163083
95.74121099999999,-277.36365,-0.8341521000000001
95.941406,-278.19476000000003,-0.83632469
96.141602,-278.95468,-0.83898902
96.341797,-279.73852999999997,-0.84253252
96.54199200000001,-280.49509,-0.84438622
96.742188,-281.33272999999997,-0.84742606
96.94238299999999,-282.06203999999997,-0.8492142
97.142578,-282.89898999999997,-0.85245669
97.342773,-283.66446,-0.85517168
97.542969,-284.43289,-0.85733831
97.74316400000001,-285.20081,-0.85979402
97.943359,-286.00928,-0.86304247
98.143555,-286.78763,-0.86586177
98.34375,-287.52112,-0.86795986
98.543945,-288.36646,-0.87067187
98.744141,-289.14975,-0.87300241
98.94433599999999,-289.92349,-0.87610483
99.144531,-290.67487,-0.87875128
99.344727,-291.50146,-0.8816271999999999
99.544922,-292.24933,-0.88422894
99.74511700000001,-293.03812,-0.88731647
99.945313,-293.8172,-0.89013278
100.14551,-294.58243,-0.89273751
100.3457,-295.34265,-0.89552701
100.5459,-296.12402000000003,-0.89805126
100.74609,-296.94088999999997,-0.90122521
100.94629,-297.7088,-0.90337694
101.14648000000001,-298.51886,-0.90756416
101.34668,-299.2832,-0.90978444
101.54688,-300.10266,-0.9121716000000001
101.74707,-300.81149,-0.91494024
101.94726999999999,-301.65936,-0.91812313
102.14746,-302.40594,-0.92134774
102.34766,-303.19092,-0.9238869000000001
102.54785,-303.97461,-0.92711151
102.74805,-304.76056,-0.9309411
102.94824,-305.53375,-0.93335509
103.14844000000001,-306.31461,-0.93686283
103.34863,-307.1091,-0.93962848
103.54883000000001,-307.88824,-0.94240308
103.74902,-308.63953,-0.94562769
103.94922,-309.39651000000003,-0.94836652
104.14941,-310.21106000000003,-0.95152557
104.34961,-310.91898,-0.95452368
104.5498,-311.707,-0.95829666
104.75,-312.50912,-0.96175969
104.9502,-313.32797,-0.96438229
105.15038999999999,-314.0733,-0.96824765
105.35059,-314.90936,-0.9714812
105.55078,-315.65439,-0.9747684000000001
105.75098,-316.47504,-0.97881854
105.95116999999999,-317.22049,-0.98213255
106.15137,-318.00095,-0.98520815
106.35156,-318.80756,-0.98870993
106.55176000000002,-319.50692999999995,-0.99211633
106.75195,-320.29733,-0.99598169
106.95215,-321.04559,-0.9996891
107.15234,-321.85213999999996,-1.0024577
107.35253999999999,-322.63492,-1.0065407
107.55273000000001,-323.46054,-1.0102779
107.75293,-324.18945,-1.0142773
107.95313,-325.02536000000003,-1.0180414
108.15332,-325.79745,-1.0213345
108.35351999999999,-326.57596,-1.0256767
108.55371000000001,-327.34682999999995,-1.030007
108.75391,-328.15845,-1.0337442
108.9541,-328.90932999999995,-1.0373503000000002
109.1543,-329.69061,-1.041469
109.35448999999998,-330.47733,-1.0451794
109.55469,-331.2634,-1.0498524
109.75488,-332.03781000000004,-1.0539889
109.95508000000001,-332.8053,-1.0587096
110.15527,-333.64389,-1.0621101
110.35547,-334.37838999999997,-1.0676026
110.55566,-335.14993,-1.0720074
110.75586000000001,-335.93604,-1.0767311000000002
110.95605,-336.70767,-1.0815114
111.15625,-337.50739,-1.0861039
111.35645,-338.24609,-1.0916173
111.55663999999999,-339.1062,-1.0961235
111.75684,-339.83975,-1.1015117
111.95703,-340.63617,-1.1070579
112.15723,-341.39331,-1.1122316
112.35741999999999,-342.19527999999997,-1.117599
112.55762,-342.94077000000004,-1.1234373
112.75781,-343.74057,-1.1297046999999998
112.95801000000002,-344.48291,-1.1356741000000001
113.1582,-345.26392000000004,-1.1426806
113.3584,-346.06293,-1.1487603000000002
113.55859,-346.82562,-1.1564732
113.75878999999999,-347.61346000000003,-1.1637716999999999
113.95898000000001,-348.35504,-1.1717081
114.15918,-349.1749,-1.1804788999999998
114.35938,-349.74957,-1.1900336
114.55957,-350.52765,-1.2011081000000001
114.75976999999999,-351.18414,-1.2133836999999998
114.95996000000001,-351.79663,-1.2302309
115.16016,-197.26863,-0.94711185
115.36035,-65.39155600000001,-0.61684251
115.56055,-0.18040091,-0.28764307
115.76073999999998,0.076863915,0.039127469
115.96094,0.042295083,0.36393404
116.16113,0.078020617,0.68699419
116.36133000000001,0.030206516,1.0112136999999999
116.56152,0.055911019000000006,1.3365506999999999
116.76172,0.01572445,1.6624808
116.96191,0.051410869000000005,1.9864827
